,"""A2""","""A4""","""A5""","""A7""","""A10""","""A11""","""A12""","""A13""","""A17""","""A18""","""A20""","""A21""","""A22""","""A23""","""A27""","""A28""","""A30""","""A31""","""A32""","""A33""","""A38""","""A39""","""A40""","""A41""","""A42""","""A43""","""A44""","""A45""","""A46"""
radius,G,G,U,G,G,C,G,U,G,C,G,C,C,G,G,G,C,G,C,C,A,A,U,U,G,C,U,C,C,mean,std dev
2.0,0.035,0.054,0.017,0.044,0.034,0.085,0.061,0.019,0.021,0.032,0.015,0.015,0.027,0.039,0.022,0.056,0.125,0.079,0.067,0.02,0.034,0.083,0.039,0.029,0.028,0.024,0.019,0.024,1.301,0.084,0.231
3.0,0.093,0.076,0.321,0.165,0.102,0.461,1.27,0.27,0.092,0.07,0.07,0.151,0.136,0.063,0.116,0.157,1.507,1.428,0.168,0.16,0.152,0.151,0.222,0.079,0.136,0.472,0.108,0.157,1.572,0.342,0.454
4.0,0.137,0.134,7.344,0.272,0.221,0.617,1.155,0.315,0.141,0.105,0.137,0.231,3.136,0.112,0.218,0.239,5.082,1.885,0.714,4.248,0.311,0.399,0.259,4.135,2.033,2.716,0.16,0.171,1.663,1.32,1.811
5.0,0.149,8.009,9.423,0.324,0.286,1.608,3.236,2.036,0.34,0.282,0.286,4.439,4.943,2.299,0.356,0.306,5.806,1.975,1.339,5.229,0.46,0.472,5.306,6.482,2.156,5.682,9.07,6.311,1.478,3.106,2.871
6.0,0.353,9.16,9.594,0.598,2.976,4.308,4.114,2.598,0.381,4.154,3.825,6.035,5.84,2.29,0.898,1.757,6.181,2.072,4.06,5.656,0.476,3.269,5.692,7.083,2.803,6.574,9.713,7.178,1.309,4.171,2.741
7.0,0.828,9.235,9.353,0.672,4.704,6.306,4.173,5.502,3.071,5.178,4.963,6.41,5.983,2.297,1.155,2.288,6.204,5.346,5.193,5.936,0.483,4.786,7.174,7.408,4.729,6.929,9.285,7.359,1.282,4.974,2.539
8.0,1.042,9.233,9.234,2.771,4.914,6.987,5.594,6.42,4.869,5.647,5.67,6.975,5.923,3.845,2.377,3.602,6.698,6.616,5.716,6.127,4.504,5.724,7.583,7.729,5.961,7.261,9.308,7.211,1.198,5.75,2.104
9.0,1.542,9.342,8.905,3.586,5.555,7.336,6.974,6.599,5.658,5.626,7.07,7.453,6.152,4.643,3.091,5.509,7.021,7.351,5.895,5.906,5.889,6.917,8.041,7.869,7.405,7.926,9.374,7.013,1.148,6.303,1.974
10.0,2.497,9.656,8.684,4.334,6.54,7.238,7.839,7.106,5.681,6.156,7.695,7.55,6.303,5.165,3.988,6.018,7.388,7.721,5.859,6.254,6.024,7.376,8.143,7.736,8.174,8.602,9.524,8.041,4.539,6.822,1.634
11.0,3.304,9.755,8.988,5.028,7.048,7.662,8.723,7.397,5.636,6.506,8.197,7.487,6.816,5.722,4.67,6.712,8.07,8.188,7.269,7.65,6.576,7.566,8.143,8.769,8.408,8.995,9.571,8.471,6.261,7.365,1.474
12.0,5.26,9.843,9.13,5.618,7.78,7.868,9.442,7.905,5.634,7.025,8.414,7.443,6.905,6.112,6.016,7.164,8.655,8.514,7.409,8.242,6.851,7.673,8.482,9.143,8.809,8.946,9.606,9.006,6.289,7.765,1.273
13.0,6.676,10.119,9.814,6.499,8.043,8.323,9.856,8.957,5.982,7.538,8.919,7.783,7.288,6.418,7.079,7.376,9.06,9.068,7.971,8.871,7.775,8.186,9.199,9.664,9.126,9.237,9.745,9.654,6.696,8.308,1.182
14.0,7.758,10.317,10.315,7.365,8.274,8.587,10.131,9.733,8.417,8.676,9.322,8.048,7.418,6.59,7.845,8.233,9.999,9.602,9.376,9.395,9.28,9.468,9.569,9.914,9.629,9.502,9.753,10.017,7.704,8.974,0.998
15.0,9.988,10.413,10.646,8.067,8.767,9.176,10.438,10.233,9.658,9.758,9.693,8.546,7.49,6.787,8.664,9.13,10.255,10.422,9.912,10.314,11.351,10.114,10.073,10.18,9.954,9.713,9.684,10.173,8.472,9.589,0.986
16.0,10.622,10.574,10.948,8.576,9.207,10.273,10.723,10.417,10.52,10.74,10.112,8.945,7.767,7.016,9.259,9.735,10.429,10.691,10.187,10.926,12.442,11.068,10.351,10.453,10.334,10.05,9.894,10.345,9.301,10.066,1.035
17.0,11.029,10.878,11.087,9.509,9.811,11.076,11.023,10.442,11.042,11.001,10.424,9.464,8.158,7.566,9.359,10.049,10.644,10.641,10.685,11.349,12.428,11.376,10.768,10.627,10.526,10.359,10.087,10.324,9.849,10.399,0.943
18.0,11.233,11.058,11.003,9.961,9.979,11.772,11.186,10.835,11.561,11.064,10.589,9.999,8.936,8.151,9.849,10.451,10.751,10.606,10.931,11.729,12.295,11.77,11.118,10.664,10.675,10.576,10.183,10.255,10.282,10.671,0.838
19.0,11.327,11.149,10.865,10.624,10.664,11.918,11.369,11.154,11.747,11.228,10.68,10.348,9.651,9.201,10.105,10.661,10.694,10.802,11.171,11.702,12.091,11.72,11.239,10.9,10.729,10.648,10.594,10.25,10.534,10.888,0.636
20.0,11.376,11.09,10.871,11.058,11.399,12.029,11.539,11.42,11.94,11.299,10.724,10.56,10.158,9.601,10.375,10.723,10.687,10.987,11.341,11.727,12.021,11.802,11.425,11.251,10.792,10.658,10.782,10.618,10.566,11.063,0.567
22.0,11.266,10.964,11.075,11.526,11.986,12.216,12.034,11.69,12.047,11.902,10.769,10.726,10.509,10.206,10.757,10.946,10.97,11.228,11.674,11.877,12.06,12.122,11.956,11.679,11.054,10.64,10.771,10.939,11.02,11.331,0.568
24.0,11.128,10.798,11.447,11.728,12.352,12.269,12.103,12.18,12.501,12.082,10.67,10.781,10.697,10.461,11.496,11.378,11.37,11.663,11.877,12.239,12.201,12.321,12.594,12.114,11.574,10.94,10.693,10.951,11.254,11.581,0.636
26.0,10.9,10.987,11.9,12.249,12.613,12.512,12.348,12.438,12.473,12.082,11.034,10.729,10.769,10.67,11.864,11.91,11.782,11.852,12.14,12.521,12.364,12.571,12.865,12.612,11.988,11.528,10.651,10.832,11.071,11.802,0.705
28.0,10.81,11.528,12.293,12.503,12.899,12.75,12.544,12.546,12.522,12.357,11.362,10.972,10.889,10.803,12.163,11.991,11.95,12.189,12.299,12.535,12.784,12.78,12.876,12.927,12.287,11.617,10.914,10.691,10.906,11.989,0.745
30.0,10.769,11.962,12.567,12.868,12.995,12.951,12.759,12.623,12.535,12.413,11.786,11.462,11.184,11.184,12.37,12.287,12.194,12.269,12.561,12.493,13.017,12.927,12.852,12.986,12.794,12.224,11.45,10.654,10.74,12.203,0.725
32.0,11.228,12.258,12.804,12.898,13.053,13.033,12.905,12.857,12.528,12.522,11.952,11.678,11.724,11.368,12.274,12.171,12.303,12.375,12.561,12.584,13.096,13.03,12.898,12.949,12.952,12.437,11.67,10.977,10.696,12.337,0.659
34.0,11.788,12.544,12.917,13.023,12.943,13.117,13.044,12.997,12.565,12.548,12.1,12.059,11.86,11.992,12.343,12.306,12.379,12.592,12.521,12.771,13.082,13.105,13.042,12.902,12.997,12.865,12.129,11.46,10.716,12.507,0.563
36.0,12.048,12.753,12.987,13.234,13.059,13.101,13.073,13.073,12.645,12.539,12.277,12.029,12.113,12.219,12.424,12.343,12.503,12.574,12.515,12.911,13.073,13.082,13.1,13.006,13.006,12.97,12.471,11.868,11.18,12.627,0.475
38.0,12.394,12.888,12.956,13.166,13.127,13.078,13.073,13.073,12.904,12.568,12.426,12.249,12.124,12.234,12.639,12.635,12.588,12.525,12.593,13.033,13.073,13.073,13.096,13.064,12.915,13.001,12.831,12.243,11.667,12.732,0.373
40.0,13.073,13.073,13.073,13.073,13.073,13.073,13.073,13.073,13.073,13.073,13.073,13.073,13.073,13.073,13.073,13.073,13.073,13.073,13.073,13.073,13.073,13.073,13.073,13.073,13.073,13.073,13.073,13.073,13.073,13.073,0.0
mean,7.264,9.65,10.019,7.632,8.428,9.025,9.166,8.824,8.213,8.489,8.423,8.401,8.068,7.177,7.477,7.973,9.185,8.839,8.589,9.223,8.595,8.897,9.351,9.566,8.864,9.178,9.418,8.837,7.371
std dev,4.839,3.466,3.073,4.79,4.378,4.143,4.001,4.187,4.678,4.268,3.978,3.5,3.31,3.93,4.603,4.349,3.24,3.865,4.115,3.746,4.919,4.384,3.863,3.482,3.993,3.395,3.342,3.381,4.122
