,"""A2647""","""A2648""","""A2649""","""A2650""","""A2651""","""A2652""","""A2653""","""A2654""","""A2655""","""A2656""","""A2657""","""A2658""","""A2659""","""A2660""","""A2661""","""A2662""","""A2663""","""A2664""","""A2665""","""A2666""","""A2667""","""A2668""","""A2669""","""A2670""","""A2671""","""A2672""","""A2673"""
radius,U,G,C,U,C,C,G,A,G,U,A,C,G,A,G,A,G,G,A,A,A,G,G,A,G,U,G,mean,std dev
2.0,0.083,0.017,1.625,0.029,0.033,0.036,0.036,0.014,0.045,0.045,0.031,0.02,0.045,0.055,0.069,0.06,0.035,0.028,0.04,0.033,0.026,0.056,0.043,0.042,0.116,0.129,0.106,0.107,0.299
3.0,0.627,0.83,1.629,0.283,0.154,0.094,0.128,0.253,1.513,0.105,0.155,0.257,0.182,0.259,0.13,0.128,0.279,0.151,0.1,0.17,0.233,0.226,0.134,0.534,0.48,1.113,0.785,0.405,0.415
4.0,1.108,1.048,1.618,0.351,0.314,0.269,0.305,0.423,1.466,0.505,0.303,0.325,0.368,0.36,0.394,0.228,0.366,0.319,0.196,0.386,0.426,0.921,0.414,1.93,1.574,1.781,1.694,0.718,0.562
5.0,1.439,3.075,4.158,2.028,2.023,0.517,0.538,0.864,1.615,0.514,0.411,0.386,0.473,0.493,0.456,0.351,0.439,1.89,0.338,0.742,0.823,1.209,2.818,4.224,3.963,4.51,4.758,1.669,1.468
6.0,1.907,4.493,4.991,3.594,2.655,0.789,0.811,1.16,1.892,0.516,0.569,0.525,0.54,0.542,0.526,0.47,0.438,1.8,0.465,0.841,1.042,1.402,3.358,4.521,4.695,4.944,5.47,2.035,1.727
7.0,2.619,5.004,5.133,4.491,2.89,1.05,0.921,1.498,1.721,0.557,0.624,0.621,0.573,0.666,0.53,0.501,0.476,1.685,1.225,0.869,1.065,1.404,3.49,4.334,5.195,5.792,5.795,2.249,1.858
8.0,3.368,5.204,5.569,5.447,2.988,2.531,1.152,1.514,1.659,1.182,0.746,0.691,0.589,0.654,0.536,0.545,0.501,1.508,1.288,0.915,1.115,1.444,3.74,3.995,5.269,6.377,6.364,2.477,1.982
9.0,4.005,6.185,5.907,5.915,3.127,2.855,1.203,1.442,1.582,1.358,0.77,0.73,0.672,0.598,0.569,0.57,1.327,1.389,1.415,0.979,1.247,2.003,3.515,4.151,5.348,6.837,6.503,2.674,2.099
10.0,4.623,6.224,6.254,6.114,3.607,2.84,1.262,1.37,1.53,1.389,1.076,1.089,0.716,0.576,0.62,0.609,1.393,1.298,1.361,1.036,1.303,2.303,3.338,4.245,5.707,6.733,6.537,2.783,2.139
11.0,5.358,6.426,6.238,6.049,4.442,2.844,2.348,1.353,1.389,1.374,1.193,1.241,0.732,0.587,0.624,0.628,1.32,1.233,1.32,1.324,1.319,2.748,3.178,4.445,5.853,6.409,6.216,2.896,2.13
12.0,6.133,6.352,6.253,5.771,4.69,2.903,2.285,1.339,1.323,1.339,1.239,1.252,1.135,0.621,0.653,0.678,1.26,1.212,1.277,1.41,1.318,2.82,3.221,4.64,5.868,6.172,6.468,2.949,2.15
13.0,6.338,6.529,6.131,5.648,4.841,2.835,2.443,1.359,1.281,1.303,1.273,1.234,1.195,0.615,0.701,1.081,1.232,1.209,1.262,1.457,1.508,2.797,3.639,4.845,5.745,5.967,6.558,3.001,2.139
14.0,6.6,6.5,5.98,5.492,5.02,3.245,2.475,1.399,1.259,1.306,1.333,1.233,1.225,0.632,0.7,1.311,1.219,1.223,1.301,1.474,1.968,2.76,3.752,5.004,5.629,5.922,6.447,3.052,2.112
15.0,6.37,6.414,5.803,5.388,4.903,3.811,2.615,1.742,1.248,1.303,1.32,1.2,1.206,0.709,1.126,1.294,1.2,1.222,1.344,1.919,2.438,2.905,4.099,5.067,5.49,5.874,6.298,3.123,2.023
16.0,6.098,6.217,5.66,5.251,4.76,3.873,2.934,2.039,1.248,1.341,1.316,1.195,1.208,0.746,1.282,1.262,1.192,1.241,1.416,2.521,2.886,3.362,4.185,4.948,5.439,5.83,6.13,3.17,1.929
17.0,5.802,5.908,5.487,5.14,4.713,4.003,3.145,2.04,1.261,1.368,1.312,1.229,1.204,0.769,1.264,1.252,1.212,1.244,1.557,2.874,3.093,3.77,4.445,4.905,5.381,5.734,6.068,3.192,1.867
18.0,5.537,5.682,5.3,4.967,4.65,4.185,3.455,2.352,1.308,1.386,1.338,1.242,1.208,0.78,1.238,1.224,1.208,1.251,2.368,3.183,3.46,3.954,4.584,4.957,5.264,5.602,5.973,3.247,1.79
19.0,5.34,5.411,5.122,4.867,4.589,4.266,3.708,2.756,1.363,1.909,1.366,1.242,1.201,1.254,1.223,1.207,1.225,1.402,2.816,3.474,3.694,4.13,4.582,4.873,5.148,5.547,5.849,3.317,1.683
20.0,5.246,5.21,5.0,4.788,4.514,4.299,3.931,2.809,1.785,1.929,1.373,1.264,1.22,1.231,1.2,1.202,1.253,1.541,2.932,3.698,3.932,4.275,4.606,4.824,5.07,5.387,5.681,3.341,1.624
22.0,5.024,5.014,4.759,4.606,4.491,4.306,4.073,3.476,2.593,2.516,1.9,1.326,1.246,1.208,1.206,1.21,1.411,2.553,3.328,3.786,3.989,4.346,4.541,4.715,4.908,5.099,5.428,3.447,1.445
24.0,4.885,4.833,4.626,4.498,4.39,4.295,4.107,3.783,2.849,2.826,2.657,1.618,1.244,1.198,1.241,1.27,1.588,3.026,3.713,3.855,4.091,4.299,4.437,4.58,4.783,4.955,5.141,3.511,1.319
26.0,4.714,4.648,4.479,4.387,4.292,4.195,4.081,3.907,3.57,3.515,3.062,2.616,1.461,1.206,1.238,1.414,2.54,3.397,3.836,3.979,4.103,4.264,4.36,4.482,4.596,4.795,5.006,3.635,1.132
28.0,4.546,4.48,4.379,4.251,4.188,4.115,4.047,4.013,3.802,3.821,3.643,3.145,1.882,1.242,1.249,1.588,3.089,3.724,3.955,4.034,4.059,4.186,4.283,4.384,4.529,4.612,4.83,3.707,1.007
30.0,4.381,4.365,4.229,4.188,4.114,4.074,4.034,4.034,3.916,3.941,3.824,3.581,2.872,1.233,1.477,2.358,3.302,3.888,4.026,4.034,4.034,4.091,4.208,4.298,4.399,4.551,4.679,3.783,0.836
32.0,4.249,4.229,4.153,4.1,4.08,4.034,4.034,4.034,4.013,4.013,3.941,3.745,3.24,1.258,1.668,3.013,3.695,4.0,4.034,4.034,4.034,4.05,4.107,4.218,4.315,4.39,4.568,3.824,0.736
34.0,4.17,4.131,4.1,4.08,4.034,4.034,4.034,4.034,4.034,4.034,4.005,3.895,3.612,1.549,2.8,3.253,3.889,4.034,4.034,4.034,4.034,4.034,4.072,4.139,4.217,4.333,4.406,3.89,0.554
36.0,4.104,4.091,4.046,4.034,4.034,4.034,4.034,4.034,4.034,4.034,4.034,4.005,3.808,2.314,3.207,3.688,4.0,4.034,4.034,4.034,4.034,4.034,4.034,4.081,4.149,4.199,4.344,3.945,0.373
38.0,4.059,4.04,4.034,4.034,4.034,4.034,4.034,4.034,4.034,4.034,4.034,4.034,3.913,2.959,3.524,3.88,4.034,4.034,4.034,4.034,4.034,4.034,4.034,4.047,4.083,4.131,4.206,3.979,0.229
40.0,4.034,4.034,4.034,4.034,4.034,4.034,4.034,4.034,4.034,4.034,4.034,4.034,4.034,4.034,4.034,4.034,4.034,4.034,4.034,4.034,4.034,4.034,4.034,4.034,4.034,4.034,4.034,4.034,0.0
mean,4.233,4.71,4.714,4.27,3.676,3.048,2.628,2.314,2.185,1.983,1.824,1.689,1.483,1.046,1.224,1.39,1.695,2.054,2.174,2.385,2.529,2.961,3.56,4.119,4.526,4.888,5.046
std dev,1.738,1.667,1.284,1.614,1.388,1.433,1.432,1.323,1.169,1.339,1.343,1.278,1.155,0.813,0.968,1.12,1.251,1.273,1.416,1.453,1.442,1.322,1.234,1.189,1.425,1.548,1.632
